Frequency,Absorption
1.0257937945294275,0.0007020868730502066
1.111276610740213,0.0008253841787138361
1.1967594269509987,0.000958912196093031
1.2822422431617841,0.0011027561207717694
1.3677250593725698,0.0012570122800278506
1.4532078755833553,0.0014217817365138182
1.538690691794141,0.0015971732589684434
1.6241735080049264,0.0017833071946026658
1.7096563242157121,0.0019803081626834306
1.7951391404264976,0.0021883104947669676
1.8806219566372833,0.0024074613450774936
1.9661047728480687,0.0026379156030164833
2.051587589058855,0.002879874174375185
2.13707040526964,0.0031332859695563414
2.222553221480426,0.0033986776886895825
2.3080360376912115,0.003676054102812733
2.3935188539019974,0.003965643787973587
2.4790016701127824,0.004267665457932697
2.5644844863235683,0.004582352670060078
2.6499673025343538,0.004909945128610073
2.7354501187451397,0.005250704106023479
2.820932934955925,0.005604898214015081
2.9064157511667106,0.0059728141353295105
2.991898567377496,0.006354754377978651
3.077381383588282,0.00675103900130469
3.1628641997990674,0.0071620055421422
3.248347016009853,0.007588006910588435
3.3338298322206383,0.008029420799302807
3.4193126484314242,0.008486642975193932
3.50479546464221,0.008960089117339576
3.590278280852995,0.009450202855087294
3.6757610970637806,0.009957449680725804
3.7612439132745665,0.010482313426263483
3.8467267294853524,0.011025316563037822
3.9322095456961375,0.011586984742195834
4.017692361906923,0.012167859867718307
4.10317517811771,0.012768246427710846
4.188657994328495,0.013393287836077161
4.27414081053928,0.014033830978419485
4.359623626750066,0.014698222523240004
4.445106442960852,0.0153854833833227
4.530589259171637,0.016096327600509254
4.616072075382423,0.01683158439852834
4.701554891593209,0.017592161203747975
4.787037707803995,0.018379016890058837
4.87252052401478,0.019193175253332546
4.958003340225565,0.020035718219759795
5.043486156436351,0.0209078001017318
5.128968972647137,0.0218106314293148
5.214451788857922,0.022745509946453454
5.2999346050687075,0.023713804679291267
5.385417421279493,0.0247169698489322
5.470900237490279,0.02575655069190543
5.556383053701064,0.02683417196665825
5.64186586991185,0.027951579533673936
5.727348686122635,0.029110594909201395
5.812831502333421,0.03031317327872783
5.898314318544206,0.03156137575962623
5.983797134754992,0.03285737242310594
6.069279950965778,0.03420347185823737
6.154762767176564,0.03560210267921465
6.240245583387349,0.037055831747246235
6.325728399598135,0.038567351184557806
6.411211215808921,0.04013949429061671
6.496694032019706,0.041775238310082556
6.582176848230491,0.04347768266388997
6.667659664441277,0.045250059398947724
6.753142480652063,0.04709572347718291
6.8386252968628485,0.04901813713128199
6.9241081130736335,0.051020862193429634
7.00959092928442,0.053107531377123325
7.095073745495205,0.055281828861254156
7.18055656170599,0.05754744104925594
7.266039377916776,0.05990804481927754
7.351522194127561,0.062367245879567906
7.437005010338346,0.06492851315438655
7.522487826549133,0.06759516336879869
7.607970642759918,0.07037024394269015
7.693453458970705,0.073256520788712
7.77893627518149,0.07625637766257236
7.864419091392275,0.07937178682761378
7.949901907603062,0.0826042547101522
8.035384723813847,0.08595480766899267
8.120867540024632,0.08942400912694969
8.20635035623542,0.09301200129631368
8.291833172446205,0.0967186135583711
8.37731598865699,0.1005434939391886
8.462798804867775,0.10448636224269556
8.54828162107856,0.1085472725168497
8.633764437289347,0.11272691758000622
8.719247253500132,0.11702703247704642
8.804730069710917,0.12145078318517184
8.890212885921704,0.1260031446423625
8.975695702132489,0.13069126145155086
9.061178518343274,0.13552475174222736
9.14666133455406,0.1405158962515574
9.232144150764846,0.14567972105169716
9.317626966975633,0.15103395862556848
9.403109783186418,0.15659884321283976
9.488592599397203,0.1623968322263235
9.57407541560799,0.16845216473592928
9.659558231818774,0.17479025707713441
9.74504104802956,0.18143717442886834
9.830523864240345,0.18841883802231318
9.91600668045113,0.1957603088744325
10.001489496661916,0.20348495525663385
10.086972312872701,0.21161364105222089
10.172455129083486,0.22016378604749437
10.257937945294273,0.22914851488717772
10.343420761505058,0.23857566734072375
10.428903577715843,0.24844700002340642
10.51438639392663,0.25875719312984397
10.599869210137415,0.2694932222272012
10.685352026348202,0.2806336784169776
10.770834842558987,0.2921483774755816
10.85631765876977,0.30399834909642987
10.941800474980559,0.31613609773167906
11.027283291191345,0.32850635018849117
11.112766107402129,0.3410472859438996
11.198248923612915,0.35369221179950894
11.2837317398237,0.3663717368667024
11.369214556034485,0.3790162634451884
11.45469737224527,0.3915586329318891
11.540180188456057,0.40393691745258614
11.625663004666842,0.41609698610003454
11.71114582087763,0.427994777049811
11.796628637088412,0.4395979996583692
11.882111453299201,0.4508873117493505
11.967594269509984,0.46185679613438774
12.053077085720771,0.4725137190894468
12.138559901931556,0.4828778003764635
12.224042718142343,0.49297992040626304
12.309525534353128,0.5028604751320992
12.395008350563915,0.5125676411714849
12.480491166774698,0.5221553754836691
12.565973982985486,0.5316817409949647
12.65145679919627,0.5412071050916036
12.736939615407056,0.5507927529259413
12.822422431617841,0.5604995274813024
12.907905247828626,0.570386965032048
12.993388064039411,0.5805123655350469
13.078870880250198,0.5909301402695557
13.164353696460982,0.6016913598918907
13.24983651267177,0.61284334278281
13.335319328882553,0.6244290965512933
13.42080214509334,0.6364870517421406
13.506284961304125,0.649050309970837
13.591767777514912,0.662146307997149
13.677250593725697,0.6757958095730248
13.762733409936482,0.6900097323383034
13.848216226147267,0.7047979718338765
13.933699042358056,0.7201497735725407
14.01918185856884,0.7360489176778083
14.104664674779626,0.7524643693179566
14.19014749099041,0.7693498172379761
14.275630307201197,0.786641864688758
14.36111312341198,0.8042583396554315
14.446595939622767,0.8220968672538742
14.532078755833552,0.8400340594088582
14.617561572044337,0.8579250860175318
14.703044388255122,0.8756045060033456
14.788527204465911,0.8928877793042336
14.874010020676693,0.9095745292402655
14.959492836887481,0.925452696665289
15.044975653098266,0.9403044413565056
15.130458469309051,0.953912783204765
15.215941285519836,0.9660698019596045
15.301424101730625,0.9765845360532993
15.38690691794141,0.9852915644913915
15.472389734152195,0.9920582065658723
15.55787255036298,0.996790944131302
15.643355366573768,0.9994397234192156
15.72883818278455,1.0
15.814320998995338,0.9985125572894263
15.899803815206123,0.9950608602292426
15.985286631416908,0.9897663932615787
16.070769447627693,0.9827823641667692
16.156252263838482,0.9742863397131304
16.241735080049263,0.9644725753215879
16.327217896260052,0.9535441118939889
16.41270071247084,0.9417057813947686
16.498183528681622,0.9291579395916268
16.58366634489241,0.9160912752292352
16.669149161103196,0.9026829922424291
16.75463197731398,0.8890939677701677
16.840114793524766,0.875467124170713
16.92559760973555,0.8619265654800194
17.011080425946336,0.8485777945143594
17.09656324215712,0.8355082120515728
17.182046058367906,0.822788089799706
17.267528874578694,0.810472009725697
17.353011690789476,0.7986002155314528
17.438494507000264,0.7872002050317071
17.52397732321105,0.7762882206817477
17.609460139421834,0.7658706314908664
17.69494295563262,0.7559450995083494
17.780425771843408,0.7465004877995964
17.86590858805419,0.7375032885559395
17.951391404264978,0.7291109299207689
18.036874220475763,0.7209680625179383
18.122357036686548,0.7132732382775419
18.207839852897333,0.7059577876469197
18.29332266910812,0.6989886681404031
18.378805485318907,0.6923346581986942
18.46428830152969,0.6859648301351501
18.549771117740477,0.6798485769447531
18.635253933951265,0.6739560810067828
18.720736750162047,0.6682585404317227
18.806219566372835,0.6627284972832084
18.89170238258362,0.6573401524293412
18.977185198794405,0.6520695510989355
19.06266801500519,0.6468948097032936
19.14815083121598,0.6417961903357515
19.23363364742676,0.6367562992068765
19.31911646363755,0.6317600590586347
19.404599279848334,0.6267947424047536
19.49008209605912,0.621849948290242
19.575564912269904,0.6169175739531672
19.66104772848069,0.6119916525723108
19.746530544691474,0.6070682927719357
19.83201336090226,0.6021454747657974
19.917496177113044,0.5972229241781172
20.002978993323833,0.5923016744846521
20.088461809534614,0.5873851720391332
20.173944625745403,0.5824763377864041
20.259427441956188,0.5775802998952843
20.344910258166973,0.5727025734689752
20.430393074377758,0.5678492993144612
20.515875890588546,0.5630270758422687
20.601358706799328,0.5582427701801346
20.686841523010116,0.5535033336109829
20.7723243392209,0.5488157534189059
20.857807155431686,0.5441869058984321
20.94328997164247,0.5396234341503303
21.02877278785326,0.5351317509167971
21.114255604064045,0.5307178335520527
21.19973842027483,0.5263873691742755
21.285221236485615,0.5221455365497513
21.370704052696404,0.5179970780193195
21.45618686890719,0.5139462405805306
21.541669685117974,0.5099968488949768
21.62715250132876,0.5061521976836496
21.71263531753954,0.5024151372492405
21.798118133750332,0.49878807758237775
21.883600949961117,0.49527296832980827
21.9690837661719,0.4918713815317915
22.05456658238269,0.48858447275950895
22.140049398593476,0.48541307468610373
22.225532214804257,0.4823576399311212
22.311015031015042,0.47941833499398334
22.39649784722583,0.47659505108390154
22.481980663436616,0.47388744504533836
22.5674634796474,0.4712948804689952
22.652946295858186,0.4688165929898074
22.73842911206897,0.4664516072525462
22.823911928279756,0.46419877703499973
22.90939474449054,0.4620568326009723
22.994877560701326,0.46002438871298285
23.080360376912115,0.458099972611059
23.1658431931229,0.45628201169785004
23.251326009333685,0.45456888696424874
23.336808825544466,0.4529588966507897
23.42229164175526,0.4514503188270099
23.507774457966043,0.45004141678729814
23.593257274176825,0.4487304304958293
23.67874009038761,0.447515575786761
23.764222906598402,0.44639507330221156
23.849705722809183,0.4453671723792002
23.93518853901997,0.4444301146659928
24.020671355230753,0.44358218706770947
24.106154171441542,0.44282168474549893
24.191636987652327,0.4421469523898282
24.277119803863112,0.4415563468666704
24.362602620073897,0.4410482919277979
24.448085436284686,0.4406212145155297
24.53356825249547,0.4402736549211089
24.619051068706256,0.4400041230153817
24.704533884917037,0.4398112284264493
24.79001670112783,0.4396936286224756
24.875499517338614,0.43965003278710435
24.960982333549396,0.43967918358061336
25.04646514976018,0.43977990251285926
25.131947965970973,0.4399510653083273
25.217430782181754,0.44019160046864525
25.30291359839254,0.44050049332432184
25.388396414603324,0.4408767978125226
25.473879230814113,0.4413196281146808
25.559362047024898,0.4418281337287724
25.644844863235683,0.442401540369477
25.730327679446468,0.4430391577144737
25.815810495657253,0.4437403100847254
25.901293311868038,0.444504418042155
25.986776128078823,0.44533091877499925
26.072258944289608,0.44621936233506343
26.157741760500397,0.447169286803395
26.24322457671118,0.4481803458131593
26.328707392921963,0.449252206163381
26.414190209132748,0.45038459405035347
26.49967302534354,0.4515772970389277
26.58515584155432,0.45283010894598713
26.670638657765107,0.45414288100515593
26.75612147397589,0.4555155132120964
26.84160429018668,0.45694787834276274
26.927087106397465,0.4584399079115963
27.01256992260825,0.4599915138294366
27.098052738819035,0.46160259610542836
27.183535555029824,0.463273045980405
27.26901837124061,0.46500269435270797
27.354501187451394,0.46679133343492607
27.439984003662186,0.46863863757581653
27.525466819872964,0.4705442099042163
27.61094963608375,0.47250746491291057
27.696432452294534,0.4745276901895112
27.781915268505326,0.4766039125126528
27.86739808471611,0.4787349428045962
27.952880900926896,0.48091925741818575
28.03836371713768,0.48315501376997566
28.123846533348466,0.48543992809578096
28.20932934955925,0.48777127937874265
28.294812165770036,0.4901458367378861
28.38029498198082,0.49255978300013387
28.46577779819161,0.49500870819783876
28.551260614402395,0.49748750612276904
28.636743430613176,0.4999904111459702
28.72222624682396,0.5025109253089666
28.80770906303475,0.505041852941444
28.893191879245535,0.5075752803839241
28.97867469545632,0.5101026853582366
29.064157511667105,0.5126149673117231
29.14964032787789,0.5151025741872183
29.235123144088675,0.5175556507807804
29.32060596029946,0.5199642105768557
29.406088776510245,0.52231835698817
29.491571592721037,0.5246084652561508
29.577054408931822,0.5268254562338035
29.662537225142607,0.5289610095768696
29.748020041353385,0.5310077904667978
29.833502857564177,0.5329596590604458
29.918985673774962,0.5348117834110359
30.004468489985747,0.5365608003449397
30.089951306196532,0.5382048055461395
30.175434122407324,0.5397434196779493
30.260916938618102,0.5411776452063105
30.346399754828887,0.5425098213888949
30.431882571039672,0.5437434443732935
30.517365387250464,0.5448829768954634
30.60284820346125,0.5459336496726589
30.688331019672034,0.5469012722027464
30.77381383588282,0.5477920366834527
30.859296652093605,0.5486123119546469
30.94477946830439,0.5493685367844086
31.030262284515175,0.5500670437085339
31.11574510072596,0.5507139770006051
31.20122791693675,0.5513152488437058
31.286710733147537,0.5518764486781721
31.372193549358315,0.552402860273729
31.4576763655691,0.5528994237221702
31.54315918177989,0.5533707598691905
31.628641997990677,0.5538212059557232
31.714124814201462,0.5542547997174722
31.799607630412247,0.5546753294324354
31.885090446623032,0.555086340175566
31.970573262833817,0.5554911759169107
32.0560560790446,0.5558929636730161
32.14153889525539,0.556294682321242
32.22702171146618,0.5566990945006529
32.312504527676964,0.5571088195757562
32.39798734388775,0.5575263062702512
32.48347016009853,0.5579538286680169
32.56895297630932,0.558393501507823
32.654435792520104,0.558847264141154
32.73991860873089,0.5593168858384416
32.82540142494168,0.5598039481169677
32.910884241152466,0.5603098632455324
32.996367057363244,0.5608358616041303
33.08184987357403,0.56138299672541
33.16733268978482,0.5619521623718964
33.252815505995606,0.5625440460616504
33.33829832220639,0.5631591973317782
33.423781138417176,0.563798012465981
33.50926395462796,0.5644607192620378
33.594746770838746,0.5651474136378777
33.68022958704953,0.5658580632301484
33.765712403260316,0.5665925162869269
33.8511952194711,0.5673505022979091
33.93667803568189,0.5681316568443844
34.02216085189267,0.568935529209238
34.10764366810346,0.5697615880820716
34.19312648431424,0.5706092365209773
34.27860930052503,0.5714778250026092
34.36409211673581,0.5723666286452687
34.4495749329466,0.5732749137656703
34.53505774915739,0.5742018986557439
34.62054056536817,0.5751467703294794
34.70602338157895,0.5761087148041208
34.79150619778974,0.5770868824335396
34.87698901400053,0.5780804260533756
34.962471830211314,0.5790884930744802
